*Vertices 60
1 "Adela RĂILEANU"
2 "Adrian BELÎI"
3 "Alexandr TRUBCA"
4 "Alina DANDARA"
5 "Alla DAROVANNAIA"
6 "Alla PILIPEȚCAIA"
7 "Ana CALINICI"
8 "Ana OGLINDA"
9 "Ana RACU"
10 "Ana SPEIANU"
11 "Andrian CHEPTONAR"
12 "Angela MUNTEANU-POJOGA"
13 "Artemie CĂTĂNOI"
14 "Boris MARCOCI"
15 "Boris POPA"
16 "Corneliu FURCULIȚĂ"
17 "Diana CARAMAN"
18 "Doina GHERMAN"
19 "Dorian ISTRATII"
20 "Efimia BANDALAC"
21 "Ersilia QATRAWI"
22 "Eugeniu SINCHEVICI"
23 "Evghenia COJOCARI"
24 "Gheorghe ICHIM"
25 "Grigore NOVAC"
26 "Igor CHIRIAC"
27 "Igor GROSU"
28 "Ina COȘERU"
29 "Inga SIBOVA"
30 "Ion BABICI"
31 "Ion GROZA"
32 "Ion POIA"
33 "Ion ȘPAC"
34 "Larisa NOVAC"
35 "Larisa VOLOH"
36 "Lilian CARP"
37 "Liliana GROSU"
38 "Liliana NICOLAESCU-ONOFREI"
39 "Marcela ADAM"
40 "Marcela NISTOR"
41 "Maria GONȚA"
42 "Maria PANCU"
43 "Mariana CUȘNIR"
44 "Mariana LUCREȚEANU"
45 "Marina MOROZOVA"
46 "Natalia DAVIDOVICI"
47 "Oazu NANTOI"
48 "Oleg CANAȚUI"
49 "Olesea STAMATE"
50 "Petru BURDUJA"
51 "Radu MARIAN"
52 "Radu MUDREAC"
53 "Sergiu LAZARENCU"
54 "Vasile GRĂDINARU"
55 "Veronica ROȘCA"
56 "Victor SPÎNU"
57 "Viorel BARDA"
58 "Virgiliu PÂSLARIUC"
59 "Vitali GAVROUC"
60 "Vlad BATRÎNCEA"
*Edges
13 55 11
19 51 6
14 36 5
22 38 5
11 36 5
2 55 5
4 18 4
12 25 4
34 38 3
13 26 3
3 57 3
26 55 3
14 15 3
28 43 3
51 53 3
45 51 3
2 18 2
8 13 2
4 22 2
11 55 2
8 54 2
51 56 2
14 54 2
4 55 2
18 45 2
3 54 2
2 27 2
13 15 2
38 39 2
13 35 2
2 8 2
7 55 2
24 48 2
18 31 2
2 47 1
11 45 1
10 11 1
10 38 1
20 38 1
8 10 1
10 51 1
11 51 1
2 54 1
39 45 1
3 51 1
8 18 1
32 51 1
2 45 1
37 45 1
1 60 1
11 26 1
3 19 1
2 42 1
30 51 1
21 58 1
3 14 1
11 32 1
26 31 1
16 52 1
40 59 1
3 8 1
14 43 1
3 18 1
26 49 1
17 29 1
4 28 1
13 54 1
12 13 1
13 36 1
3 43 1
3 27 1
2 51 1
2 44 1
13 21 1
16 50 1
14 27 1
5 60 1
36 55 1
8 35 1
36 54 1
46 49 1
15 55 1
2 46 1
12 26 1
28 51 1
14 51 1
3 45 1
28 35 1
4 49 1
21 53 1
27 55 1
4 56 1
35 41 1
11 33 1
12 23 1
19 22 1
3 35 1
49 51 1
6 50 1
11 47 1
7 27 1
34 53 1
8 38 1
8 31 1
9 13 1
40 47 1
12 38 1
36 46 1
9 37 1
26 36 1
19 20 1
3 47 1
50 52 1
3 53 1
20 35 1
